INDEX VERSION 1.131+C:\Users\ramannpr\support_works\java spring boot microservices 8.30 institute\.metadata\.plugins\org.eclipse.jdt.core
3105904648.index
1285544063.index
2720751595.index
2204403105.index
1403904873.index
2275476630.index
1752862138.index
4128725239.index
3885883768.index
4200495815.index
4232178577.index
3515129874.index
1887114750.index
3873696353.index
3391610166.index
2529736297.index
3697795078.index
3263262284.index
208089862.index
3753146388.index
1039947775.index
4087089178.index
479192563.index
3373731574.index
3008087201.index
3662550970.index
319198531.index
2399425340.index
1133951738.index
3440093413.index
689552030.index
2747938833.index
3962763584.index
3484441794.index
4238078599.index
1301585996.index
790293785.index
172809347.index
2053729234.index
398852022.index
3592575225.index
2127084088.index
2578411941.index
1745886755.index
1228323271.index
3292617649.index
4034046130.index
2231687035.index
1975972258.index
4212076456.index
2343436462.index
3503238276.index
27145952.index
1159230734.index
3878524279.index
1810282188.index
575839070.index
1291324173.index
169796881.index
1068415008.index
3088083868.index
3709201543.index
814000683.index
2963618097.index
3454296904.index
3261239881.index
3028559102.index
3329869171.index
1696494569.index
657863722.index
2020632996.index
3629067910.index
1495270895.index
3787286074.index
3579271641.index
2397943341.index
1158433969.index
3357354403.index
2138448766.index
4170990302.index
2335980471.index
2993760229.index
731968244.index
2925679001.index
870993433.index
3141256530.index
2826165369.index
3359857299.index
1711508044.index
258215668.index
1362710205.index
2996827272.index
3901881091.index
1367400509.index
786902668.index
2410278499.index
3880282096.index
3033822286.index
778568628.index
902432117.index
226300725.index
3142859894.index
3049543270.index
2513380141.index
2676596651.index
696938426.index
2511425907.index
822923203.index
4121206250.index
2363774528.index
3599578774.index
3934181729.index
2763765207.index
3163590721.index
3090767186.index
911245093.index
1879276555.index
649817265.index
1912225051.index
667067614.index
2515198726.index
3314676928.index
3549324868.index
1190930684.index
3139554680.index
3972787828.index
1253688453.index
3423015731.index
45900687.index
3373914127.index
1487783305.index
1368622536.index
378153073.index
1788716167.index
1456010245.index
1129633148.index
2941501479.index
3606698810.index
2841650353.index
1068494516.index
3457050775.index
1913755281.index
3780435684.index
919331380.index
