INDEX VERSION 1.131+C:\Users\ramannpr\support_works\java spring boot microservices 8.30 institute\.metadata\.plugins\org.eclipse.jdt.core
3585466628.index
2988535940.index
1650732884.index
3934181729.index
3592575225.index
45900687.index
2915718050.index
3572692575.index
3116846752.index
2568692430.index
3967280502.index
1068494516.index
1752862138.index
656741405.index
2642397326.index
1353222841.index
1291324173.index
4212076456.index
1068415008.index
1879276555.index
3113459258.index
1020184470.index
2513380141.index
3324278907.index
1253441553.index
319198531.index
258828259.index
3244034644.index
3723013793.index
3196848607.index
2080692850.index
2915072775.index
3484441794.index
4072707551.index
3902746089.index
2204403105.index
1756086121.index
374393369.index
2809423333.index
3211773916.index
786902668.index
2747938833.index
3880231276.index
1159230734.index
4010566227.index
4057192102.index
486212650.index
2127084088.index
3503238276.index
3915658389.index
1285544063.index
655375146.index
1458409927.index
446869445.index
1084772038.index
3511723715.index
2841650353.index
4208017447.index
465150192.index
4010656398.index
1214367305.index
3709201543.index
1618400528.index
4020449950.index
3373914127.index
4237426067.index
2826165369.index
3722966287.index
1918927979.index
731968244.index
3579271641.index
657863722.index
4085636665.index
1428256770.index
3142859894.index
1575816604.index
785988714.index
689552030.index
225032474.index
3804311065.index
778568628.index
3753146388.index
2231687035.index
1158433969.index
2970272929.index
1434590085.index
1423314316.index
1843123581.index
1508738211.index
1582025922.index
1956158391.index
2564154321.index
2088757168.index
924709048.index
2138448766.index
3049543270.index
1892195776.index
2099293024.index
962547040.index
692542439.index
4034046130.index
4174907092.index
709509821.index
3447939360.index
1657313049.index
3017227148.index
2112741047.index
2513897111.index
813966927.index
4052862817.index
1793950835.index
1856369856.index
2986274923.index
3695637975.index
1367400509.index
2168459144.index
3395646240.index
2366187434.index
4088453328.index
3885883768.index
3795247591.index
27145952.index
2720751595.index
1913755281.index
2993760229.index
1039947775.index
1709371982.index
332552512.index
2398531443.index
3796863028.index
1887114750.index
2832459767.index
870993433.index
1190930684.index
2229980189.index
3105904648.index
751887502.index
3357354403.index
1098164584.index
676535794.index
1281337094.index
3008087201.index
262584783.index
3549324868.index
1456010245.index
649817265.index
575839070.index
2950603888.index
1707860295.index
1710102452.index
3454296904.index
